 #written on 10Jan2023 at 21:58:39 
 #------------------------------------------------- MONTECARLO -------------------------------------------------#
 # Temp      Magnetization     Energy_ave          C_M              Sus              U_E              U_M       #
 #--------------------------------------------------------------------------------------------------------------#
   5.0500   0.77778401E-01  -0.25979592E+00   0.62110172E-01   0.89665940E-01   0.63625382E+00   0.57467977E+00
   4.9995   0.79049417E-01  -0.26354927E+00   0.62391427E-01   0.93868495E-01   0.63781257E+00   0.57643821E+00
   4.9490   0.79269413E-01  -0.26592492E+00   0.68147643E-01   0.95836718E-01   0.63573512E+00   0.57435373E+00
   4.8985   0.80472458E-01  -0.26904893E+00   0.66971669E-01   0.95213754E-01   0.63766587E+00   0.57985457E+00
   4.8480   0.81811156E-01  -0.27304898E+00   0.68026891E-01   0.98980188E-01   0.63869884E+00   0.57911917E+00
   4.7975   0.82254189E-01  -0.27705181E+00   0.69539045E-01   0.10099885E+00   0.63930876E+00   0.58052815E+00
   4.7470   0.83783650E-01  -0.28064446E+00   0.72025405E-01   0.10422297E+00   0.63972175E+00   0.58089354E+00
   4.6965   0.85390818E-01  -0.28399830E+00   0.76837573E-01   0.10685979E+00   0.63895255E+00   0.58305133E+00
   4.6460   0.87248188E-01  -0.28848793E+00   0.75496422E-01   0.10546810E+00   0.64120969E+00   0.58925223E+00
   4.5955   0.88630802E-01  -0.29328368E+00   0.77867661E-01   0.11110651E+00   0.64140915E+00   0.58833977E+00
   4.5449   0.89034104E-01  -0.29622102E+00   0.83809638E-01   0.11430297E+00   0.64096132E+00   0.58640757E+00
   4.4944   0.90750296E-01  -0.30037528E+00   0.86526894E-01   0.11541114E+00   0.64117541E+00   0.58911739E+00
   4.4439   0.92129598E-01  -0.30527192E+00   0.88758985E-01   0.11907135E+00   0.64203491E+00   0.58995381E+00
   4.3934   0.93779893E-01  -0.30914978E+00   0.90942357E-01   0.12010290E+00   0.64244623E+00   0.59259588E+00
   4.3429   0.95383593E-01  -0.31364696E+00   0.92075619E-01   0.11700495E+00   0.64345418E+00   0.59706561E+00
   4.2924   0.97443756E-01  -0.32017244E+00   0.10027759E+00   0.12581620E+00   0.64306567E+00   0.59591263E+00
   4.2419   0.98956015E-01  -0.32319931E+00   0.10096608E+00   0.12560779E+00   0.64363917E+00   0.59839431E+00
   4.1914   0.10071637E+00  -0.33008707E+00   0.10234235E+00   0.12872633E+00   0.64496233E+00   0.60047507E+00
   4.1409   0.10278227E+00  -0.33625240E+00   0.10517392E+00   0.13297052E+00   0.64560054E+00   0.60169618E+00
   4.0904   0.10425682E+00  -0.33972970E+00   0.10990033E+00   0.13697661E+00   0.64570620E+00   0.60296761E+00
   4.0399   0.10604830E+00  -0.34552985E+00   0.11932667E+00   0.13748033E+00   0.64525252E+00   0.60560539E+00
   3.9894   0.10893241E+00  -0.35172913E+00   0.12294308E+00   0.14355102E+00   0.64597694E+00   0.60725251E+00
   3.9389   0.11114708E+00  -0.35841397E+00   0.12332682E+00   0.14465570E+00   0.64704884E+00   0.60972863E+00
   3.8884   0.11329053E+00  -0.36370279E+00   0.12476881E+00   0.14448094E+00   0.64786320E+00   0.61185372E+00
   3.8379   0.11509861E+00  -0.37022563E+00   0.13105198E+00   0.15176144E+00   0.64814953E+00   0.61162560E+00
   3.7874   0.11821591E+00  -0.37714215E+00   0.13744408E+00   0.15185486E+00   0.64852520E+00   0.61621804E+00
   3.7369   0.11989200E+00  -0.38276315E+00   0.14478654E+00   0.16149718E+00   0.64825337E+00   0.61335104E+00
   3.6864   0.12348547E+00  -0.39179764E+00   0.15414792E+00   0.16603002E+00   0.64864729E+00   0.61646572E+00
   3.6359   0.12617888E+00  -0.39985032E+00   0.16224227E+00   0.17211665E+00   0.64879447E+00   0.61620889E+00
   3.5854   0.12957843E+00  -0.40742774E+00   0.16829691E+00   0.17219551E+00   0.64942455E+00   0.62010008E+00
   3.5348   0.13229110E+00  -0.41498680E+00   0.17569942E+00   0.17471131E+00   0.64968029E+00   0.62153680E+00
   3.4843   0.13567783E+00  -0.42496947E+00   0.17679723E+00   0.17254172E+00   0.65101887E+00   0.62510772E+00
   3.4338   0.14004665E+00  -0.43432654E+00   0.19030904E+00   0.18522566E+00   0.65092823E+00   0.62538986E+00
   3.3833   0.14362770E+00  -0.44482477E+00   0.19739748E+00   0.18681056E+00   0.65145178E+00   0.62708144E+00
   3.3328   0.14688924E+00  -0.45316043E+00   0.20670188E+00   0.19654065E+00   0.65186321E+00   0.62821943E+00
   3.2823   0.15149194E+00  -0.46545689E+00   0.22816496E+00   0.20565495E+00   0.65174246E+00   0.62937891E+00
   3.2318   0.15608353E+00  -0.47664699E+00   0.24042731E+00   0.21298619E+00   0.65199556E+00   0.63014969E+00
   3.1813   0.16044890E+00  -0.48893865E+00   0.24014547E+00   0.21938468E+00   0.65321072E+00   0.63234777E+00
   3.1308   0.16542250E+00  -0.49995950E+00   0.25186990E+00   0.21541709E+00   0.65354208E+00   0.63489808E+00
   3.0803   0.16985692E+00  -0.51131344E+00   0.28214508E+00   0.23093525E+00   0.65314283E+00   0.63528974E+00
   3.0298   0.17616594E+00  -0.52728438E+00   0.28860551E+00   0.23479748E+00   0.65404109E+00   0.63725739E+00
   2.9793   0.18265594E+00  -0.54394633E+00   0.31254827E+00   0.23692710E+00   0.65421334E+00   0.63948834E+00
   2.9288   0.18933096E+00  -0.56015295E+00   0.32266947E+00   0.25193016E+00   0.65503926E+00   0.64048102E+00
   2.8783   0.19649922E+00  -0.57777148E+00   0.34057822E+00   0.24681379E+00   0.65539304E+00   0.64288707E+00
   2.8278   0.20306265E+00  -0.59491315E+00   0.36889804E+00   0.26249791E+00   0.65562962E+00   0.64361038E+00
   2.7773   0.21090452E+00  -0.61400418E+00   0.41040967E+00   0.26914559E+00   0.65553398E+00   0.64500970E+00
   2.7268   0.21903131E+00  -0.63515121E+00   0.42491278E+00   0.27779625E+00   0.65628282E+00   0.64634261E+00
   2.6763   0.22821733E+00  -0.65806199E+00   0.45578823E+00   0.28564019E+00   0.65656853E+00   0.64747884E+00
   2.6258   0.23666446E+00  -0.68069412E+00   0.49016521E+00   0.28921300E+00   0.65700460E+00   0.64912447E+00
   2.5753   0.24654076E+00  -0.70581662E+00   0.55015474E+00   0.30653397E+00   0.65689437E+00   0.64972537E+00
   2.5247   0.25827104E+00  -0.73541135E+00   0.58049001E+00   0.30719406E+00   0.65762093E+00   0.65158042E+00
   2.4742   0.27003758E+00  -0.76564711E+00   0.61965327E+00   0.30818416E+00   0.65805085E+00   0.65299571E+00
   2.4237   0.28247797E+00  -0.79742172E+00   0.65779202E+00   0.32070843E+00   0.65854604E+00   0.65384233E+00
   2.3732   0.29606349E+00  -0.83410523E+00   0.75078055E+00   0.34134229E+00   0.65857470E+00   0.65459268E+00
   2.3227   0.30960843E+00  -0.87037530E+00   0.79759863E+00   0.34854732E+00   0.65916302E+00   0.65567460E+00
   2.2722   0.32548427E+00  -0.91202518E+00   0.79938921E+00   0.32765692E+00   0.66008047E+00   0.65746306E+00
   2.2217   0.34077176E+00  -0.95479209E+00   0.95109927E+00   0.35807581E+00   0.65985097E+00   0.65772351E+00
   2.1712   0.35776891E+00  -0.10025255E+01   0.94647614E+00   0.33740018E+00   0.66079737E+00   0.65919719E+00
   2.1207   0.37551304E+00  -0.10525488E+01   0.10563530E+01   0.35012977E+00   0.66098936E+00   0.65976512E+00
   2.0702   0.39502578E+00  -0.11093689E+01   0.11161662E+01   0.33429246E+00   0.66153518E+00   0.66087180E+00
   2.0197   0.41432205E+00  -0.11662083E+01   0.12076645E+01   0.33271132E+00   0.66186934E+00   0.66152262E+00
   1.9692   0.43505812E+00  -0.12289770E+01   0.12443521E+01   0.31340052E+00   0.66243617E+00   0.66236807E+00
   1.9187   0.45474064E+00  -0.12906741E+01   0.12517300E+01   0.29852071E+00   0.66299583E+00   0.66300892E+00
   1.8682   0.47560912E+00  -0.13578802E+01   0.13495355E+01   0.28703468E+00   0.66327920E+00   0.66354595E+00
   1.8177   0.49707366E+00  -0.14273223E+01   0.13841110E+01   0.28078828E+00   0.66369251E+00   0.66394338E+00
   1.7672   0.51805881E+00  -0.14994695E+01   0.14183603E+01   0.26359513E+00   0.66404695E+00   0.66436912E+00
   1.7167   0.53945330E+00  -0.15723643E+01   0.14562195E+01   0.24081524E+00   0.66436224E+00   0.66478515E+00
   1.6662   0.56029097E+00  -0.16475756E+01   0.14471373E+01   0.22364677E+00   0.66470111E+00   0.66509330E+00
   1.6157   0.58002081E+00  -0.17195484E+01   0.15750015E+01   0.22334938E+00   0.66482361E+00   0.66524516E+00
   1.5652   0.60050283E+00  -0.17958890E+01   0.15081382E+01   0.19695486E+00   0.66514331E+00   0.66553282E+00
   1.5146   0.61978642E+00  -0.18703133E+01   0.15072948E+01   0.18317028E+00   0.66535370E+00   0.66570806E+00
   1.4641   0.63880049E+00  -0.19451479E+01   0.14349911E+01   0.16156835E+00   0.66558747E+00   0.66589866E+00
   1.4136   0.65629876E+00  -0.20154393E+01   0.13974128E+01   0.15033018E+00   0.66575368E+00   0.66601245E+00
   1.3631   0.67420028E+00  -0.20883513E+01   0.14530383E+01   0.14357848E+00   0.66584528E+00   0.66609534E+00
   1.3126   0.69120569E+00  -0.21605688E+01   0.13363838E+01   0.12258540E+00   0.66600993E+00   0.66621870E+00
   1.2621   0.70772434E+00  -0.22303896E+01   0.13680042E+01   0.11627716E+00   0.66608397E+00   0.66627718E+00
   1.2116   0.72290523E+00  -0.22973153E+01   0.13318186E+01   0.10610136E+00   0.66617370E+00   0.66633929E+00
   1.1611   0.73885052E+00  -0.23668793E+01   0.12820443E+01   0.94222266E-01   0.66625585E+00   0.66640003E+00
   1.1106   0.75290084E+00  -0.24306432E+01   0.12750796E+01   0.88720653E-01   0.66631170E+00   0.66643514E+00
   1.0601   0.76701686E+00  -0.24942247E+01   0.13144355E+01   0.85700654E-01   0.66635088E+00   0.66646134E+00
   1.0096   0.78125986E+00  -0.25594739E+01   0.12483551E+01   0.75481411E-01   0.66640822E+00   0.66650052E+00
   0.9591   0.79459868E+00  -0.26218378E+01   0.12135649E+01   0.68358176E-01   0.66645034E+00   0.66652843E+00
   0.9086   0.80736423E+00  -0.26819729E+01   0.11657122E+01   0.62000559E-01   0.66648851E+00   0.66655164E+00
   0.8581   0.82001165E+00  -0.27426610E+01   0.11780730E+01   0.56531375E-01   0.66651307E+00   0.66657059E+00
   0.8076   0.83253532E+00  -0.28025333E+01   0.11009852E+01   0.50398076E-01   0.66654483E+00   0.66658847E+00
   0.7571   0.84441693E+00  -0.28604047E+01   0.10935754E+01   0.46028114E-01   0.66656456E+00   0.66660156E+00
   0.7066   0.85611954E+00  -0.29178764E+01   0.10978603E+01   0.41835547E-01   0.66658094E+00   0.66661296E+00
   0.6561   0.86745513E+00  -0.29748492E+01   0.11471419E+01   0.40461231E-01   0.66659232E+00   0.66661967E+00
   0.6056   0.87899131E+00  -0.30318114E+01   0.11329219E+01   0.36195716E-01   0.66660645E+00   0.66662887E+00
   0.5551   0.88998482E+00  -0.30873929E+01   0.10397520E+01   0.31444196E-01   0.66662189E+00   0.66663731E+00
   0.5045   0.90067737E+00  -0.31416215E+01   0.10734844E+01   0.28204806E-01   0.66662976E+00   0.66664329E+00
   0.4540   0.91151900E+00  -0.31968661E+01   0.11503514E+01   0.26055425E-01   0.66663574E+00   0.66664769E+00
   0.4035   0.92181274E+00  -0.32504737E+01   0.10094840E+01   0.20756934E-01   0.66664592E+00   0.66665353E+00
   0.3530   0.93220757E+00  -0.33037153E+01   0.10346191E+01   0.17912361E-01   0.66665092E+00   0.66665697E+00
   0.3025   0.94229799E+00  -0.33565113E+01   0.10203417E+01   0.15123672E-01   0.66665562E+00   0.66665980E+00
   0.2520   0.95212220E+00  -0.34088979E+01   0.95379790E+00   0.12069769E-01   0.66665972E+00   0.66666219E+00
   0.2015   0.96210326E+00  -0.34614102E+01   0.10653250E+01   0.10756488E-01   0.66666185E+00   0.66666355E+00
   0.1510   0.97170793E+00  -0.35131286E+01   0.11008883E+01   0.82319757E-02   0.66666395E+00   0.66666491E+00
   0.1005   0.98136055E+00  -0.35645483E+01   0.10879019E+01   0.51491121E-02   0.66666551E+00   0.66666595E+00
   0.0500   0.99075773E+00  -0.36153339E+01   0.94701329E+00   0.21958580E-02   0.66666643E+00   0.66666652E+00
